ID,Input Lon,Input Lat,Elev(ft),Elev(m)
1,-72.80828,44.52403,3610.63,1100.52
2,-72.80855,44.52406,3606.66,1099.31
3,-72.80878,44.52413,3594.46,1095.59
4,-72.80894,44.52415,3589.34,1094.03
5,-72.809,44.52407,3585.66,1092.91
6,-72.80898,44.52402,3583.37,1092.21
7,-72.80894,44.52389,3579.95,1091.17
8,-72.80859,44.52357,3558.07,1084.5
9,-72.80842,44.5234,3542.42,1079.73
10,-72.80818,44.52321,3530.15,1075.99
11,-72.80783,44.52306,3523.29,1073.9
12,-72.80757,44.52303,3514.07,1071.09
13,-72.80734,44.52304,3504.33,1068.12
14,-72.80712,44.52309,3495.01,1065.28
15,-72.80667,44.52321,3477.66,1059.99
16,-72.8062,44.52329,3462.11,1055.25
17,-72.80568,44.52331,3439.5,1048.36
18,-72.80523,44.52335,3420.47,1042.56
19,-72.80461,44.52336,3395.87,1035.06
20,-72.80435,44.52334,3385.99,1032.05
21,-72.80412,44.52332,3377.23,1029.38
22,-72.80359,44.52333,3359.15,1023.87
23,-72.80316,44.52334,3340.22,1018.1
24,-72.8029,44.52334,3327.76,1014.3
25,-72.80257,44.52331,3319.98,1011.93
26,-72.80229,44.52328,3316.9,1010.99
27,-72.80198,44.5232,3310.3,1008.98
28,-72.80182,44.52312,3306.14,1007.71
29,-72.80166,44.52301,3302.33,1006.55
30,-72.80155,44.52291,3301.35,1006.25
31,-72.80144,44.52281,3291.77,1003.33
32,-72.80138,44.52271,3286.48,1001.72
33,-72.80138,44.52265,3285.89,1001.54
34,-72.80144,44.52257,3285.11,1001.3
35,-72.80159,44.52251,3282.55,1000.52
36,-72.80173,44.52247,3279.59,999.62
37,-72.80189,44.52245,3277.17,998.88
38,-72.8021,44.52244,3273.82,997.86
39,-72.80227,44.52243,3270.05,996.71
40,-72.80239,44.52245,3266.93,995.76
41,-72.8025,44.52247,3263.16,994.61
42,-72.8026,44.52252,3259.65,993.54
43,-72.80269,44.52254,3257.68,992.94
44,-72.80279,44.52254,3256.73,992.65
45,-72.80288,44.52253,3255.15,992.17
46,-72.80299,44.52252,3252.76,991.44
47,-72.80312,44.5225,3250.13,990.64
48,-72.80322,44.52248,3248.46,990.13
49,-72.8033,44.52245,3245.6,989.26
50,-72.80337,44.52243,3242.95,988.45
51,-72.80347,44.52241,3237.76,986.87
52,-72.80355,44.52239,3232.51,985.27
53,-72.80362,44.52236,3229.86,984.46
54,-72.80363,44.5223,3226.94,983.57
55,-72.80355,44.52227,3225.07,983
56,-72.80343,44.52226,3222.61,982.25
57,-72.80327,44.52225,3220.34,981.56
58,-72.80313,44.52223,3219.19,981.21
59,-72.80304,44.52221,3216.96,980.53
60,-72.80295,44.52221,3214.76,979.86
61,-72.80288,44.5222,3212.01,979.02
62,-72.80279,44.52212,3202.43,976.1
63,-72.80281,44.52204,3191.7,972.83
64,-72.8029,44.52201,3187.2,971.46
65,-72.80297,44.52198,3184.22,970.55
66,-72.80309,44.52196,3180.35,969.37
67,-72.80326,44.52193,3174.8,967.68
68,-72.80339,44.52189,3168.37,965.72
69,-72.80367,44.5218,3157.35,962.36
70,-72.80383,44.52176,3153.74,961.26
71,-72.80401,44.52169,3148.16,959.56
72,-72.80419,44.52156,3141.08,957.4
73,-72.8043,44.5215,3134.78,955.48
74,-72.80441,44.52142,3129.1,953.75
75,-72.80446,44.52137,3125.95,952.79
76,-72.80451,44.5213,3120.6,951.16
77,-72.8045,44.52124,3118.5,950.52
78,-72.80437,44.52118,3110.11,947.96
79,-72.80419,44.52115,3101.9,945.46
80,-72.80402,44.52111,3087.7,941.13
81,-72.80368,44.52107,3077.62,938.06
82,-72.80343,44.52104,3067.32,934.92
83,-72.80327,44.52101,3054.89,931.13
84,-72.80314,44.521,3051.02,929.95
85,-72.80299,44.52099,3049.02,929.34
86,-72.80283,44.52095,3041.9,927.17
87,-72.80268,44.52089,3035.6,925.25
88,-72.80252,44.52082,3026.18,922.38
89,-72.80236,44.52076,3022.9,921.38
90,-72.80223,44.52069,3015.22,919.04
91,-72.80208,44.52061,3010.99,917.75
92,-72.80183,44.5205,3001.61,914.89
93,-72.80173,44.52046,2999.28,914.18
94,-72.8016,44.5204,2991.54,911.82
95,-72.80117,44.52025,2976.8,907.33
96,-72.80102,44.52019,2966.31,904.13
97,-72.80082,44.52013,2962.04,902.83
98,-72.80063,44.52006,2955.87,900.95
99,-72.80041,44.52001,2954.95,900.67
100,-72.80027,44.51997,2950.23,899.23
101,-72.80013,44.51993,2945.77,897.87
102,-72.79997,44.51987,2938.09,895.53
103,-72.79981,44.51981,2931.36,893.48
104,-72.79961,44.51975,2926.44,891.98
105,-72.79947,44.51971,2922.44,890.76
106,-72.79938,44.51969,2919.69,889.92
107,-72.79915,44.51962,2912.34,887.68
108,-72.79874,44.51949,2899.05,883.63
109,-72.79859,44.51947,2895.08,882.42
110,-72.79846,44.51948,2891.73,881.4
111,-72.79839,44.51953,2889.9,880.84
112,-72.79834,44.5196,2887.8,880.2
113,-72.79825,44.51976,2879,877.52
114,-72.79821,44.51989,2871.23,875.15
115,-72.79813,44.52001,2865.45,873.39
116,-72.79803,44.52019,2859.94,871.71
117,-72.79793,44.52035,2855.51,870.36
118,-72.79788,44.52048,2851.35,869.09
119,-72.79782,44.52063,2846.46,867.6
120,-72.79771,44.52084,2838.88,865.29
121,-72.7976,44.52102,2827.53,861.83
122,-72.79751,44.52114,2823.03,860.46
123,-72.79742,44.52124,2821.75,860.07
124,-72.79725,44.5214,2816.5,858.47
125,-72.79708,44.52155,2805.09,854.99
126,-72.79697,44.52156,2798.46,852.97
127,-72.7969,44.52151,2791.86,850.96
128,-72.79688,44.52144,2787.6,849.66
129,-72.79689,44.5213,2782.87,848.22
130,-72.79694,44.52097,2769.75,844.22
131,-72.79692,44.5209,2765.55,842.94
132,-72.79688,44.52084,2762.01,841.86
133,-72.79676,44.52075,2756.1,840.06
134,-72.79656,44.52057,2749.18,837.95
135,-72.79647,44.52051,2745.44,836.81
136,-72.79614,44.52025,2729.72,832.02
137,-72.79601,44.52013,2721.69,829.57
138,-72.79587,44.52002,2713.32,827.02
139,-72.79563,44.5198,2696.56,821.91
140,-72.79556,44.51974,2693.18,820.88
141,-72.79531,44.51949,2679.59,816.74
142,-72.79516,44.5193,2673.2,814.79
143,-72.79496,44.51899,2662.07,811.4
144,-72.79473,44.51851,2633.04,802.55
145,-72.79447,44.51804,2613.45,796.58
146,-72.79426,44.51769,2596.23,791.33
147,-72.79379,44.51701,2560.79,780.53
148,-72.79363,44.51671,2543.8,775.35
149,-72.79352,44.5165,2531.92,771.73
150,-72.79342,44.51629,2523.49,769.16
151,-72.79336,44.51609,2512.83,765.91
152,-72.79332,44.51589,2502.85,762.87
153,-72.79329,44.51571,2494.85,760.43
154,-72.79331,44.51552,2487.47,758.18
155,-72.79338,44.51533,2481.82,756.46
156,-72.79348,44.51512,2480.38,756.02
157,-72.79359,44.51497,2477.3,755.08
158,-72.79376,44.51487,2475.03,754.39
159,-72.79399,44.51479,2470.67,753.06
160,-72.79417,44.51469,2461.55,750.28
161,-72.79423,44.51461,2454.89,748.25
162,-72.79427,44.51448,2446.52,745.7
163,-72.79425,44.51425,2439.3,743.5
164,-72.79417,44.5141,2430.64,740.86
165,-72.79391,44.51392,2416.7,736.61
166,-72.79362,44.51383,2409.97,734.56
167,-72.79339,44.5138,2404.92,733.02
168,-72.79323,44.51381,2401.74,732.05
169,-72.7931,44.51385,2398.1,730.94
170,-72.79295,44.51392,2391.54,728.94
171,-72.79281,44.51407,2380.38,725.54
172,-72.79276,44.51419,2383.63,726.53
173,-72.79274,44.51439,2384.88,726.91
174,-72.79273,44.51449,2384.12,726.68
175,-72.79273,44.51463,2381.99,726.03
176,-72.79263,44.51478,2381.04,725.74
177,-72.79244,44.51491,2375.72,724.12
178,-72.79231,44.51508,2368.47,721.91
179,-72.79216,44.51529,2361.12,719.67
180,-72.79192,44.51543,2352.76,717.12
181,-72.79163,44.51556,2345.24,714.83
182,-72.79135,44.51567,2339.14,712.97
183,-72.79114,44.51577,2335.53,711.87
184,-72.79096,44.51589,2332.81,711.04
185,-72.7907,44.51608,2327.85,709.53
186,-72.79054,44.5162,2323.49,708.2
187,-72.79027,44.51643,2314.01,705.31